175.003200	4434.013000
176.931700	4464.471000
178.860100	4508.786000
180.788600	4587.709000
182.717100	4659.256000
184.645500	4705.039000
186.574000	4727.510000
188.502500	4759.603000
190.430900	4816.004000
192.359400	4880.960000
194.287900	4933.048000
196.216300	4971.668000
198.144800	5000.027000
200.073300	5016.268000
202.001700	5017.087000
203.930200	5027.395000
205.858700	5055.084000
207.787100	5088.089000
209.715600	5112.631000
211.644100	5127.084000
213.572600	5137.349000
215.501000	5145.543000
217.429500	5149.059000
219.358000	5151.471000
221.286400	5149.170000
223.214900	5148.275000
225.143400	5153.314000
227.071800	5171.389000
229.000300	5187.741000
230.928800	5195.132000
232.857200	5193.952000
234.785700	5203.059000
236.714200	5240.905000
238.642600	5283.491000
240.571100	5307.176000
242.499600	5282.429000
244.428000	5268.215000
246.356500	5282.618000
248.285000	5320.122000
250.213400	5351.076000
252.141900	5365.372000
254.070400	5375.111000
255.998800	5390.054000
257.927300	5412.359000
259.855700	5434.713000
261.784200	5456.928000
263.712700	5478.145000
265.641100	5493.906000
267.569600	5498.614000
269.498100	5502.327000
271.426500	5513.899000
273.355000	5537.156000
275.283500	5552.203000
277.211900	5547.243000
279.140400	5527.353000
281.068900	5521.505000
282.997300	5540.753000
284.925800	5563.373000
286.854300	5579.722000
288.782700	5588.578000
290.711200	5596.530000
292.639700	5605.131000
294.568100	5613.506000
296.496600	5619.818000
298.425100	5621.479000
300.353500	5625.213000
302.282000	5632.903000
304.210500	5644.857000
306.138900	5660.721000
308.067400	5684.257000
309.995900	5709.706000
311.924300	5730.428000
313.852800	5743.120000
315.781300	5757.442000
317.709700	5777.541000
319.638200	5802.995000
321.566700	5824.949000
323.495100	5836.334000
325.423600	5850.521000
327.352100	5875.493000
329.280500	5921.310000
331.209000	5955.105000
333.137500	5964.096000
335.066000	5958.642000
336.994400	5966.655000
338.922900	5999.088000
340.851400	6030.275000
342.779800	6049.996000
344.708300	6053.533000
346.636800	6056.141000
348.565200	6054.667000
350.493700	6054.175000
352.422200	6059.972000
354.350600	6082.969000
356.279100	6091.712000
358.207600	6072.210000
360.136000	6021.534000
362.064500	5982.431000
363.993000	5963.741000
365.921400	5952.756000
367.849900	5937.752000
369.778400	5916.513000
371.706800	5892.463000
373.635300	5867.996000
375.563800	5844.500000
377.492200	5819.936000
379.420700	5796.394000
381.349200	5765.918000
383.277600	5726.714000
385.206100	5677.990000
387.134600	5637.361000
389.063000	5600.021000
390.991500	5564.526000
392.920000	5541.889000
394.848400	5536.986000
396.776900	5529.850000
398.705400	5513.429000
400.633900	5492.642000
402.562300	5478.016000
404.490800	5472.826000
406.419300	5465.034000
408.347700	5453.674000
410.276200	5440.145000
412.204700	5428.526000
414.133100	5414.075000
416.061600	5396.881000
417.990100	5386.313000
419.918500	5383.123000
421.847000	5392.441000
423.775500	5419.549000
425.703900	5457.421000
427.632400	5474.378000
429.560900	5445.438000
431.489300	5421.760000
433.417800	5432.687000
435.346300	5474.437000
437.274700	5502.414000
439.203200	5502.190000
441.131700	5492.960000
443.060100	5487.059000
444.988600	5483.334000
446.917100	5482.375000
448.845500	5484.531000
450.774000	5488.904000
452.702500	5496.142000
454.630900	5510.638000
456.559400	5526.097000
458.487900	5540.436000
460.416300	5553.340000
462.344800	5566.002000
464.273300	5582.685000
466.201700	5598.371000
468.130200	5606.247000
470.058700	5591.140000
471.987100	5591.178000
473.915600	5614.569000
475.844100	5651.980000
477.772500	5688.412000
479.701000	5727.797000
481.629500	5763.566000
483.557900	5794.774000
485.486400	5821.729000
487.414900	5846.551000
489.343300	5859.116000
491.271800	5877.464000
493.200300	5909.189000
495.128700	5953.889000
497.057200	5987.816000
498.985700	6015.687000
500.914100	6036.451000
502.842600	6047.976000
504.771100	6049.025000
506.699500	6051.085000
508.628000	6049.648000
510.556500	6046.973000
512.484900	6052.317000
514.413400	6080.697000
516.341900	6097.574000
518.270300	6092.191000
520.198800	6066.354000
522.127300	6038.197000
524.055700	6008.386000
525.984200	5983.443000
527.912700	5966.357000
529.841100	5961.506000
531.769600	5951.908000
533.698100	5928.690000
535.626500	5898.720000
537.555000	5874.339000
539.483500	5865.138000
541.411900	5865.833000
543.340400	5862.533000
545.268900	5856.711000
547.197300	5868.446000
549.125800	5922.256000
551.054300	5963.221000
552.982700	5969.248000
554.911200	5952.615000
556.839700	5951.133000
558.768100	5963.109000
560.696600	5970.177000
562.625100	5964.303000
564.553500	5957.388000
566.482000	5972.498000
568.410500	6008.389000
570.338900	6036.394000
572.267400	6038.876000
574.195900	6021.745000
576.124300	6023.376000
578.052800	6050.453000
579.981300	6082.957000
581.909700	6093.686000
583.838200	6076.549000
585.766700	6065.839000
587.695100	6078.110000
589.623600	6111.169000
591.552100	6146.998000
593.480500	6178.401000
595.409000	6202.161000
597.337500	6216.827000
599.265900	6230.260000
601.194400	6241.757000
603.122900	6241.719000
605.051300	6246.110000
606.979800	6265.100000
608.908300	6301.975000
610.836700	6329.585000
612.765200	6344.717000
614.693700	6360.825000
616.622100	6388.738000
618.550600	6423.651000
620.479100	6454.785000
622.407500	6478.662000
624.336000	6501.673000
626.264500	6530.924000
628.192900	6573.989000
630.121400	6603.842000
632.049900	6600.468000
633.978300	6590.875000
635.906800	6609.677000
637.835300	6661.850000
639.763700	6712.573000
641.692200	6757.018000
643.620700	6804.416000
645.549100	6854.524000
647.477600	6896.643000
649.406100	6930.960000
651.334500	6950.897000
653.263000	6977.974000
655.191500	7018.989000
657.119900	7069.979000
659.048400	7109.859000
660.976900	7127.924000
662.905300	7141.930000
664.833800	7167.425000
666.762300	7206.092000
668.690700	7240.479000
670.619200	7266.760000
672.547700	7296.922000
674.476100	7327.642000
676.404600	7355.262000
678.333100	7382.283000
680.261500	7411.293000
682.190000	7447.004000
684.118500	7485.287000
686.046900	7524.323000
687.975400	7561.252000
689.903900	7601.939000
691.832300	7659.261000
693.760800	7712.415000
695.689300	7753.495000
697.617700	7793.132000
699.546200	7846.387000
701.474700	7916.847000
703.403100	7982.374000
705.331600	8039.621000
707.260100	8085.801000
709.188500	8123.915000
711.117000	8147.888000
713.045500	8177.402000
714.973900	8212.935000
716.902400	8255.580000
718.830900	8306.008000
720.759300	8368.980000
722.687800	8425.948000
724.616300	8474.009000
726.544700	8512.990000
728.473200	8543.920000
730.401700	8563.053000
732.330100	8576.647000
734.258600	8588.007000
736.187100	8593.940000
738.115500	8583.849000
740.044000	8539.366000
741.972500	8517.129000
743.900900	8543.193000
745.829400	8599.695000
747.757900	8635.720000
749.686300	8634.760000
751.614800	8642.202000
753.543300	8673.919000
755.471700	8721.242000
757.400200	8768.535000
759.328700	8819.488000
761.257100	8862.878000
763.185600	8895.790000
765.114100	8918.497000
767.042500	8935.271000
768.971000	8946.692000
770.899500	8956.033000
772.827900	8966.008000
774.756400	8972.187000
776.684900	8970.450000
778.613300	8958.689000
780.541800	8943.193000
782.470300	8920.744000
784.398700	8891.624000
786.327200	8873.381000
788.255700	8868.753000
790.184100	8872.214000
792.112600	8887.198000
794.041100	8909.519000
795.969500	8920.136000
797.898000	8904.312000
799.826500	8887.696000
801.754900	8888.562000
803.683400	8915.080000
805.611900	8920.988000
807.540300	8890.604000
809.468800	8859.575000
811.397300	8852.537000
813.325700	8863.888000
815.254200	8861.879000
817.182700	8831.938000
819.111100	8798.481000
821.039600	8769.311000
822.968100	8753.484000
824.896500	8755.396000
826.825000	8784.128000
828.753500	8804.990000
830.681900	8805.150000
832.610400	8792.858000
834.538900	8778.707000
836.467300	8762.698000
838.395800	8748.044000
840.324300	8735.782000
842.252700	8719.614000
844.181200	8699.432000
846.109700	8675.607000
848.038100	8657.552000
849.966600	8645.188000
851.895100	8624.256000
853.823500	8615.992000
855.752000	8636.562000
857.680500	8655.493000
859.608900	8635.609000
861.537400	8603.534000
863.465900	8604.225000
865.394300	8648.656000
867.322800	8676.353000
869.251300	8666.815000
871.179700	8657.337000
873.108200	8674.339000
875.036700	8725.101000
876.965100	8766.086000
878.893600	8760.529000
880.822100	8751.306000
882.750500	8778.162000
884.679000	8847.973000
886.607500	8911.132000
888.535900	8958.785000
890.464400	9000.411000
892.392900	9040.645000
894.321400	9082.109000
896.249800	9133.785000
898.178300	9205.602000
900.106800	9274.946000
902.035200	9330.979000
903.963700	9381.243000
905.892200	9434.186000
907.820600	9484.369000
909.749100	9528.820000
911.677600	9583.919000
913.606000	9647.590000
915.534500	9705.165000
917.463000	9748.639000
919.391400	9791.749000
921.319900	9846.817000
923.248400	9913.149000
925.176800	9983.590000
927.105300	10058.130000
929.033800	10125.340000
930.962200	10175.670000
932.890700	10230.440000
934.819200	10309.790000
936.747600	10413.450000
938.676100	10506.660000
940.604600	10561.320000
942.533000	10604.630000
944.461500	10671.890000
946.390000	10778.460000
948.318400	10903.160000
950.246900	11016.470000
952.175400	11095.290000
954.103800	11153.780000
956.032300	11205.790000
957.960800	11260.550000
959.889200	11313.250000
961.817700	11377.160000
963.746200	11455.220000
965.674600	11530.080000
967.603100	11585.530000
969.531600	11622.210000
971.460000	11675.060000
973.388500	11719.900000
975.317000	11746.910000
977.245400	11768.770000
979.173900	11801.550000
981.102400	11830.120000
983.030800	11846.780000
984.959300	11872.010000
986.887800	11901.990000
988.816200	11923.790000
990.744700	11940.920000
992.673200	11962.530000
994.601600	11964.330000
996.530100	11962.370000
998.458600	11977.190000
1000.387000	12008.120000
1002.315000	12028.580000
1004.244000	12052.030000
1006.172000	12091.860000
1008.101000	12137.390000
1010.029000	12171.880000
1011.958000	12166.660000
1013.886000	12129.990000
1015.815000	12107.730000
1017.743000	12117.650000
1019.672000	12161.590000
1021.600000	12215.220000
1023.529000	12268.760000
1025.457000	12327.580000
1027.386000	12384.150000
1029.314000	12430.090000
1031.243000	12464.750000
1033.171000	12493.910000
1035.099000	12524.110000
1037.028000	12573.340000
1038.956000	12646.540000
1040.885000	12729.910000
1042.813000	12809.240000
1044.742000	12901.210000
1046.670000	13006.120000
1048.599000	13096.340000
1050.527000	13180.450000
1052.456000	13272.040000
1054.384000	13379.250000
1056.313000	13480.990000
1058.241000	13588.320000
1060.170000	13711.480000
1062.098000	13846.450000
1064.026000	13968.550000
1065.955000	14072.470000
1067.883000	14178.530000
1069.812000	14282.190000
1071.740000	14377.980000
1073.669000	14469.300000
1075.597000	14554.340000
1077.526000	14649.490000
1079.454000	14764.400000
1081.383000	14909.090000
1083.311000	15060.640000
1085.240000	15201.280000
1087.168000	15333.630000
1089.097000	15488.550000
1091.025000	15695.380000
1092.953000	15919.270000
1094.882000	16151.360000
1096.810000	16371.320000
1098.739000	16577.290000
1100.667000	16791.090000
1102.596000	17028.080000
1104.524000	17298.590000
1106.453000	17566.410000
1108.381000	17809.980000
1110.310000	18055.480000
1112.238000	18317.490000
1114.167000	18594.540000
1116.095000	18884.060000
1118.024000	19210.100000
1119.952000	19509.400000
1121.880000	19739.020000
1123.809000	19892.790000
1125.737000	20048.460000
1127.666000	20219.320000
1129.594000	20389.450000
1131.523000	20556.720000
1133.451000	20701.070000
1135.380000	20809.860000
1137.308000	20883.190000
1139.237000	20963.880000
1141.165000	21039.810000
1143.094000	21129.600000
1145.022000	21253.920000
1146.951000	21416.510000
1148.879000	21571.130000
1150.807000	21739.840000
1152.736000	21845.970000
1154.664000	21860.510000
1156.593000	21797.790000
1158.521000	21698.690000
1160.450000	21565.870000
1162.378000	21404.650000
1164.307000	21192.320000
1166.235000	20972.170000
1168.164000	20757.710000
1170.092000	20553.290000
1172.021000	20372.550000
1173.949000	20223.500000
1175.878000	20087.670000
1177.806000	19965.590000
1179.734000	19855.880000
1181.663000	19759.160000
1183.591000	19676.490000
1185.520000	19601.210000
1187.448000	19528.670000
1189.377000	19465.640000
1191.305000	19422.960000
1193.234000	19398.590000
1195.162000	19376.500000
1197.091000	19343.080000
1199.019000	19334.800000
1200.948000	19374.940000
1202.876000	19444.070000
1204.805000	19505.850000
1206.733000	19540.070000
1208.661000	19615.160000
1210.590000	19758.760000
1212.518000	19924.770000
1214.447000	20076.880000
1216.375000	20205.840000
1218.304000	20363.620000
1220.232000	20575.230000
1222.161000	20788.660000
1224.089000	20975.310000
1226.018000	21159.740000
1227.946000	21382.500000
1229.875000	21646.840000
1231.803000	21907.290000
1233.732000	22166.450000
1235.660000	22411.300000
1237.589000	22626.480000
1239.517000	22810.790000
1241.445000	22999.640000
1243.374000	23217.360000
1245.302000	23408.680000
1247.231000	23547.550000
1249.159000	23651.790000
1251.088000	23754.580000
1253.016000	23867.190000
1254.945000	23988.350000
1256.873000	24117.760000
1258.802000	24248.100000
1260.730000	24364.480000
1262.659000	24485.750000
1264.587000	24665.520000
1266.516000	24924.260000
1268.444000	25167.380000
1270.372000	25348.860000
1272.301000	25529.160000
1274.229000	25757.020000
1276.158000	26016.510000
1278.086000	26275.210000
1280.015000	26556.360000
1281.943000	26806.030000
1283.872000	26995.290000
1285.800000	27122.250000
1287.729000	27234.370000
1289.657000	27371.630000
1291.586000	27452.820000
1293.514000	27447.320000
1295.443000	27403.590000
1297.371000	27352.930000
1299.299000	27295.870000
1301.228000	27226.860000
1303.156000	27137.390000
1305.085000	27048.070000
1307.013000	26944.210000
1308.942000	26855.660000
1310.870000	26824.080000
1312.799000	26835.020000
1314.727000	26880.450000
1316.656000	26987.830000
1318.584000	27124.020000
1320.513000	27281.150000
1322.441000	27430.720000
1324.370000	27540.880000
1326.298000	27620.470000
1328.226000	27765.020000
1330.155000	28019.950000
1332.083000	28282.500000
1334.012000	28488.940000
1335.940000	28657.550000
1337.869000	28902.080000
1339.797000	29257.590000
1341.726000	29585.480000
1343.654000	29829.040000
1345.583000	30071.580000
1347.511000	30410.500000
1349.440000	30871.300000
1351.368000	31284.990000
1353.297000	31629.080000
1355.225000	31986.350000
1357.153000	32399.000000
1359.082000	32809.750000
1361.010000	33147.460000
1362.939000	33412.180000
1364.867000	33664.470000
1366.796000	33936.850000
1368.724000	34176.770000
1370.653000	34347.180000
1372.581000	34460.450000
1374.510000	34551.980000
1376.438000	34639.340000
1378.367000	34683.630000
1380.295000	34635.630000
1382.224000	34552.300000
1384.152000	34486.610000
1386.080000	34447.560000
1388.009000	34382.400000
1389.937000	34235.600000
1391.866000	34132.270000
1393.794000	34120.990000
1395.723000	34140.440000
1397.651000	34145.650000
1399.580000	34139.820000
1401.508000	34116.300000
1403.437000	34084.020000
1405.365000	33992.280000
1407.294000	33849.190000
1409.222000	33678.090000
1411.151000	33482.810000
1413.079000	33247.430000
1415.007000	33017.640000
1416.936000	32781.630000
1418.864000	32537.550000
1420.793000	32292.920000
1422.721000	32055.810000
1424.650000	31826.030000
1426.578000	31600.930000
1428.507000	31421.940000
1430.435000	31288.270000
1432.364000	31189.200000
1434.292000	31151.580000
1436.221000	31157.800000
1438.149000	31162.220000
1440.078000	31153.860000
1442.006000	31171.760000
1443.934000	31249.520000
1445.863000	31326.760000
1447.791000	31373.880000
1449.720000	31419.380000
1451.648000	31490.990000
1453.577000	31578.270000
1455.505000	31646.240000
1457.434000	31708.080000
1459.362000	31798.480000
1461.291000	31872.710000
1463.219000	31945.860000
1465.148000	32090.180000
1467.076000	32349.950000
1469.005000	32568.640000
1470.933000	32695.440000
1472.861000	32822.640000
1474.790000	32965.160000
1476.718000	33118.040000
1478.647000	33282.720000
1480.575000	33472.480000
1482.504000	33645.050000
1484.432000	33778.710000
1486.361000	33911.390000
1488.289000	34076.990000
1490.218000	34257.910000
1492.146000	34409.650000
1494.075000	34515.960000
1496.003000	34637.000000
1497.932000	34796.740000
1499.860000	34956.570000
1501.788000	35088.190000
1503.717000	35208.750000
1505.645000	35350.430000
1507.574000	35517.910000
1509.502000	35698.860000
1511.431000	35874.400000
1513.359000	36083.510000
1515.288000	36371.730000
1517.216000	36679.460000
1519.145000	36934.190000
1521.073000	37154.300000
1523.002000	37445.710000
1524.930000	37829.650000
1526.859000	38232.970000
1528.787000	38676.830000
1530.715000	39107.480000
1532.644000	39448.480000
1534.572000	39727.000000
1536.501000	40058.880000
1538.429000	40454.370000
1540.358000	40893.200000
1542.286000	41397.720000
1544.215000	41916.620000
1546.143000	42428.530000
1548.072000	42934.150000
1550.000000	43413.750000
1551.929000	43856.810000
1553.857000	44298.950000
1555.786000	44719.110000
1557.714000	45186.910000
1559.642000	45748.420000
1561.571000	46368.630000
1563.499000	46970.310000
1565.428000	47546.040000
1567.356000	48153.860000
1569.285000	48807.360000
1571.213000	49482.570000
1573.142000	50170.050000
1575.070000	50874.260000
1576.999000	51623.230000
1578.927000	52421.780000
1580.856000	53138.310000
1582.784000	53732.450000
1584.713000	54307.790000
1586.641000	54916.720000
1588.569000	55486.250000
1590.498000	55969.330000
1592.426000	56367.450000
1594.355000	56694.790000
1596.283000	57014.950000
1598.212000	57113.570000
1600.140000	56962.230000
1602.069000	56610.060000
1603.997000	56067.500000
1605.926000	55338.930000
1607.854000	54412.250000
1609.783000	53226.930000
1611.711000	52058.890000
1613.640000	50924.250000
1615.568000	49780.880000
1617.496000	48551.850000
1619.425000	47360.860000
1621.353000	46331.720000
1623.282000	45459.630000
1625.210000	44654.750000
1627.139000	43907.080000
1629.067000	43246.300000
1630.996000	42664.050000
1632.924000	42182.440000
1634.853000	41808.390000
1636.781000	41547.540000
1638.710000	41423.160000
1640.638000	41471.850000
1642.567000	41538.060000
1644.495000	41675.040000
1646.423000	41756.550000
1648.352000	41782.230000
1650.280000	41715.720000
1652.209000	41515.050000
1654.137000	41183.710000
1656.066000	40797.130000
1657.994000	40361.810000
1659.923000	39856.850000
1661.851000	39289.040000
1663.780000	38644.050000
1665.708000	37866.340000
1667.637000	37028.340000
1669.565000	36235.690000
1671.494000	35483.760000
1673.422000	34823.340000
1675.350000	34263.550000
1677.279000	33775.290000
1679.207000	33373.760000
1681.136000	33023.070000
1683.064000	32693.680000
1684.993000	32393.500000
1686.921000	32157.740000
1688.850000	32015.960000
1690.778000	31868.460000
1692.707000	31684.360000
1694.635000	31536.020000
1696.564000	31473.710000
1698.492000	31436.730000
1700.421000	31350.420000
1702.349000	31222.440000
1704.277000	31148.510000
1706.206000	31173.550000
1708.134000	31177.940000
1710.063000	31165.450000
1711.991000	31124.690000
1713.920000	31016.580000
1715.848000	30896.660000
1717.777000	30853.850000
1719.705000	30894.540000
1721.634000	30897.370000
1723.562000	30825.470000
1725.491000	30774.280000
1727.419000	30775.380000
1729.348000	30772.710000
1731.276000	30722.160000
1733.204000	30654.730000
1735.133000	30630.810000
1737.061000	30660.410000
1738.990000	30669.010000
1740.918000	30652.240000
1742.847000	30620.920000
1744.775000	30536.410000
1746.704000	30481.080000
1748.632000	30543.210000
1750.561000	30655.370000
1752.489000	30664.460000
1754.418000	30549.410000
1756.346000	30473.500000
1758.275000	30447.270000
1760.203000	30450.280000
1762.131000	30518.850000
1764.060000	30571.700000
1765.988000	30545.330000
1767.917000	30474.440000
1769.845000	30431.810000
1771.774000	30418.840000
1773.702000	30418.450000
1775.631000	30436.080000
1777.559000	30451.800000
1779.488000	30476.430000
1781.416000	30479.480000
1783.345000	30411.550000
1785.273000	30323.600000
1787.202000	30333.870000
1789.130000	30439.180000
1791.058000	30470.150000
1792.987000	30381.290000
1794.915000	30313.570000
1796.844000	30319.750000
1798.772000	30339.010000
1800.701000	30335.060000
1802.629000	30322.530000
1804.558000	30322.410000
1806.486000	30333.270000
1808.415000	30340.460000
1810.343000	30340.630000
1812.272000	30346.550000
1814.200000	30367.460000
1816.129000	30386.080000
1818.057000	30377.800000
1819.985000	30373.110000
1821.914000	30420.270000
1823.842000	30506.730000
1825.771000	30567.290000
1827.699000	30596.410000
1829.628000	30616.400000
1831.556000	30605.820000
1833.485000	30620.560000
1835.413000	30709.900000
1837.342000	30806.680000
1839.270000	30834.630000
1841.199000	30819.960000
1843.127000	30862.770000
1845.056000	30998.650000
1846.984000	31057.060000
1848.912000	30959.430000
1850.841000	30900.150000
1852.769000	30934.810000
1854.698000	30995.490000
1856.626000	31047.270000
1858.555000	31093.230000
1860.483000	31132.200000
1862.412000	31161.950000
1864.340000	31230.430000
1866.269000	31369.770000
1868.197000	31480.050000
1870.126000	31538.290000
1872.054000	31583.260000
1873.983000	31611.670000
1875.911000	31647.140000
1877.839000	31729.580000
1879.768000	31840.260000
1881.696000	31885.630000
1883.625000	31855.470000
1885.553000	31864.510000
1887.482000	31937.780000
1889.410000	32018.350000
1891.339000	32107.150000
1893.267000	32176.050000
1895.196000	32204.560000
1897.124000	32205.060000
1899.053000	32177.520000
1900.981000	32132.590000
1902.910000	32130.630000
1904.838000	32177.780000
1906.766000	32251.700000
1908.695000	32383.690000
1910.623000	32482.320000
1912.552000	32490.510000
1914.480000	32477.500000
1916.409000	32485.010000
1918.337000	32512.950000
1920.266000	32569.030000
1922.194000	32655.680000
1924.123000	32719.090000
1926.051000	32736.120000
1927.980000	32771.100000
1929.908000	32839.950000
1931.837000	32909.570000
1933.765000	32978.490000
1935.693000	33034.660000
1937.622000	33062.200000
1939.550000	33070.180000
1941.479000	33074.620000
1943.407000	33072.130000
1945.336000	33116.070000
1947.264000	33234.040000
1949.193000	33319.170000
1951.121000	33342.810000
1953.050000	33345.500000
1954.978000	33344.110000
1956.907000	33328.660000
1958.835000	33270.390000
1960.764000	33200.050000
1962.692000	33195.500000
1964.620000	33251.130000
1966.549000	33256.330000
1968.477000	33182.130000
1970.406000	33138.740000
1972.334000	33150.350000
1974.263000	33193.520000
1976.191000	33300.960000
1978.120000	33395.840000
1980.048000	33381.120000
1981.977000	33323.110000
1983.905000	33372.210000
1985.834000	33530.680000
1987.762000	33629.530000
1989.691000	33636.490000
1991.619000	33650.350000
1993.547000	33674.420000
1995.476000	33704.840000
1997.404000	33752.680000
1999.333000	33793.420000
2001.261000	33781.800000
2003.190000	33773.750000
2005.118000	33885.830000
2007.047000	34078.020000
2008.975000	34146.270000
2010.904000	34077.690000
2012.832000	34007.500000
2014.761000	33940.250000
2016.689000	33908.580000
2018.618000	33938.490000
2020.546000	33982.680000
2022.474000	34026.150000
2024.403000	34065.940000
2026.331000	34091.000000
2028.260000	34112.290000
2030.188000	34160.110000
2032.117000	34236.360000
2034.045000	34306.120000
2035.974000	34351.510000
2037.902000	34424.430000
2039.831000	34549.060000
2041.759000	34666.970000
2043.688000	34754.190000
2045.616000	34843.490000
2047.545000	34973.290000
2049.473000	35100.530000
2051.402000	35167.700000
2053.330000	35188.260000
2055.259000	35196.350000
2057.187000	35193.500000
2059.115000	35234.660000
2061.044000	35338.770000
2062.972000	35429.180000
2064.901000	35499.770000
2066.829000	35537.200000
2068.758000	35492.250000
2070.686000	35461.750000
2072.615000	35534.290000
2074.543000	35646.150000
2076.472000	35710.890000
2078.400000	35735.800000
2080.329000	35758.560000
2082.257000	35783.000000
2084.186000	35781.940000
2086.114000	35732.500000
2088.042000	35721.310000
2089.971000	35787.390000
2091.899000	35843.460000
2093.828000	35819.940000
2095.756000	35826.110000
2097.685000	35968.510000
2099.613000	36150.630000
2101.542000	36266.890000
2103.470000	36329.780000
2105.399000	36365.700000
2107.327000	36373.870000
2109.256000	36400.160000
2111.184000	36452.640000
2113.113000	36505.700000
2115.041000	36537.610000
2116.969000	36600.510000
2118.898000	36749.320000
2120.826000	36876.260000
2122.755000	36926.590000
2124.683000	36933.540000
2126.612000	36900.240000
2128.540000	36858.640000
2130.469000	36894.650000
2132.397000	36987.800000
2134.326000	37011.190000
2136.254000	36954.700000
2138.183000	36936.180000
2140.111000	36974.340000
2142.040000	37034.320000
2143.968000	37139.550000
2145.896000	37220.950000
2147.825000	37218.630000
2149.753000	37229.610000
2151.682000	37344.110000
2153.610000	37483.160000
2155.539000	37536.810000
2157.467000	37543.370000
2159.396000	37610.210000
2161.324000	37734.530000
2163.253000	37878.360000
2165.181000	38047.420000
2167.110000	38153.540000
2169.038000	38152.010000
2170.967000	38208.510000
2172.895000	38410.940000
2174.823000	38599.720000
2176.752000	38712.520000
2178.680000	38793.890000
2180.609000	38853.170000
2182.537000	38912.870000
2184.466000	39012.620000
2186.394000	39128.170000
2188.323000	39189.780000
2190.251000	39201.630000
2192.180000	39251.680000
2194.108000	39340.830000
2196.037000	39464.070000
2197.965000	39635.250000
2199.894000	39775.420000
2201.822000	39858.130000
2203.750000	39930.500000
2205.679000	39987.690000
2207.607000	40066.300000
2209.536000	40218.900000
2211.464000	40366.840000
2213.393000	40420.500000
2215.321000	40437.050000
2217.250000	40504.910000
2219.178000	40615.070000
2221.107000	40729.540000
2223.035000	40848.560000
2224.964000	40989.820000
2226.892000	41158.920000
2228.821000	41298.560000
2230.749000	41392.510000
2232.677000	41488.590000
2234.606000	41597.110000
2236.534000	41711.700000
2238.463000	41857.020000
2240.391000	41973.770000
2242.320000	41995.000000
2244.248000	42008.200000
2246.177000	42102.110000
2248.105000	42233.640000
2250.034000	42345.520000
2251.962000	42435.770000
2253.891000	42485.560000
2255.819000	42501.380000
2257.748000	42535.050000
2259.676000	42588.080000
2261.604000	42678.740000
2263.533000	42824.280000
2265.461000	42959.110000
2267.390000	43083.380000
2269.318000	43178.130000
2271.247000	43197.180000
2273.175000	43243.510000
2275.104000	43436.400000
2277.032000	43582.330000
2278.961000	43398.110000
2280.889000	43236.820000
2282.818000	43649.600000
2284.746000	44249.180000
2286.675000	44283.890000
2288.603000	43915.750000
2290.531000	43797.320000
2292.460000	43936.390000
2294.388000	43990.250000
2296.317000	43889.450000
2298.245000	43928.320000
2300.174000	44192.390000
2302.102000	44390.670000
2304.031000	44476.000000
2305.959000	44534.730000
2307.888000	44578.480000
2309.816000	44618.350000
2311.745000	44640.980000
2313.673000	44683.760000
2315.602000	44779.960000
2317.530000	44896.790000
2319.458000	45004.650000
2321.387000	45111.820000
2323.315000	45218.560000
2325.244000	45338.340000
2327.172000	45544.660000
2329.101000	45813.140000
2331.029000	45915.930000
2332.958000	45858.880000
2334.886000	45918.350000
2336.815000	46127.710000
2338.743000	46328.900000
2340.672000	46502.090000
2342.600000	46667.260000
2344.529000	46819.630000
2346.457000	46976.110000
2348.385000	47158.090000
2350.314000	47318.670000
2352.242000	47418.380000
2354.171000	47521.020000
2356.099000	47680.830000
2358.028000	47832.960000
2359.956000	47911.260000
2361.885000	47966.570000
2363.813000	48071.930000
2365.742000	48192.030000
2367.670000	48249.100000
2369.599000	48260.730000
2371.527000	48306.210000
2373.456000	48382.810000
2375.384000	48379.850000
2377.313000	48295.300000
2379.241000	48292.240000
2381.169000	48384.360000
2383.098000	48535.550000
2385.026000	48773.500000
2386.955000	48962.720000
2388.883000	49039.460000
2390.812000	49132.770000
2392.740000	49280.430000
2394.669000	49423.980000
2396.597000	49554.970000
2398.526000	49666.250000
2400.454000	49760.100000
2402.383000	49826.200000
2404.311000	49825.150000
2406.240000	49827.280000
2408.168000	49916.250000
2410.096000	50029.350000
2412.025000	50085.210000
2413.953000	50104.590000
2415.882000	50131.670000
2417.810000	50157.560000
2419.739000	50145.470000
2421.667000	50101.890000
2423.596000	50048.360000
2425.524000	49990.780000
2427.453000	50027.100000
2429.381000	50189.000000
2431.310000	50220.480000
2433.238000	50006.340000
2435.167000	49902.790000
2437.095000	49971.090000
2439.023000	50000.190000
2440.952000	49957.660000
2442.880000	49900.090000
2444.809000	49812.120000
2446.737000	49775.010000
2448.666000	49807.620000
2450.594000	49913.530000
2452.523000	50198.640000
2454.451000	50419.100000
2456.380000	50364.170000
2458.308000	50284.610000
2460.237000	50349.330000
2462.165000	50483.130000
2464.094000	50651.530000
2466.022000	50821.010000
2467.950000	50941.310000
2469.879000	51045.330000
2471.807000	51198.110000
2473.736000	51373.040000
2475.664000	51500.050000
2477.593000	51591.150000
2479.521000	51689.720000
2481.450000	51799.080000
2483.378000	51950.950000
2485.307000	52140.300000
2487.235000	52307.820000
2489.164000	52453.630000
2491.092000	52531.640000
2493.021000	52490.060000
2494.949000	52552.310000
2496.877000	52745.150000
2498.806000	52954.440000
2500.734000	53173.290000
2502.663000	53408.200000
2504.591000	53676.540000
2506.520000	53910.240000
2508.448000	54070.000000
2510.377000	54234.400000
2512.305000	54427.950000
2514.234000	54620.360000
2516.162000	54812.750000
2518.091000	54987.140000
2520.019000	55140.450000
2521.948000	55268.710000
2523.876000	55334.030000
2525.804000	55419.910000
2527.733000	55641.600000
2529.661000	55827.960000
2531.590000	55804.080000
2533.518000	55729.010000
2535.447000	55719.720000
2537.375000	55767.960000
2539.304000	55907.960000
2541.232000	56063.150000
2543.161000	56155.680000
2545.089000	56187.210000
2547.018000	56112.950000
2548.946000	56004.320000
2550.875000	56027.570000
2552.803000	56143.510000
2554.731000	56234.120000
2556.660000	56314.870000
2558.588000	56457.150000
2560.517000	56640.820000
2562.445000	56766.740000
2564.374000	56837.360000
2566.302000	56879.310000
2568.231000	56890.810000
2570.159000	56955.990000
2572.088000	57076.060000
2574.016000	57130.520000
2575.945000	57114.260000
2577.873000	57080.880000
2579.802000	57028.800000
2581.730000	57006.400000
2583.658000	57043.600000
2585.587000	57028.600000
2587.515000	56936.320000
2589.444000	56900.260000
2591.372000	56954.670000
2593.301000	56927.510000
2595.229000	56745.360000
2597.158000	56648.540000
2599.086000	56731.500000
2601.015000	56816.710000
2602.943000	56913.610000
2604.872000	56955.280000
2606.800000	56913.550000
2608.729000	56864.310000
2610.657000	56802.500000
2612.585000	56793.880000
2614.514000	56905.730000
2616.442000	56998.870000
2618.371000	56993.710000
2620.299000	57030.460000
2622.228000	57160.390000
2624.156000	57314.960000
2626.085000	57487.380000
2628.013000	57649.300000
2629.942000	57769.050000
2631.870000	57902.730000
2633.799000	58113.940000
2635.727000	58290.540000
2637.656000	58363.290000
2639.584000	58406.050000
2641.512000	58445.380000
2643.441000	58477.520000
2645.369000	58479.180000
2647.298000	58501.040000
2649.226000	58579.310000
2651.155000	58683.350000
2653.083000	58799.390000
2655.012000	58926.320000
2656.940000	59072.690000
2658.869000	59216.680000
2660.797000	59316.150000
2662.726000	59438.010000
2664.654000	59654.690000
2666.583000	59894.000000
2668.511000	60061.230000
2670.439000	60260.380000
2672.368000	60656.170000
2674.296000	61036.350000
2676.225000	61166.270000
2678.153000	61257.090000
2680.082000	61529.340000
2682.010000	61840.340000
2683.939000	62036.510000
2685.867000	62209.210000
2687.796000	62441.400000
2689.724000	62703.260000
2691.653000	62982.860000
2693.581000	63261.150000
2695.510000	63517.340000
2697.438000	63763.360000
2699.366000	64066.210000
2701.295000	64312.850000
2703.223000	64294.370000
2705.152000	64246.200000
2707.080000	64465.270000
2709.009000	64723.880000
2710.937000	64746.830000
2712.866000	64691.380000
2714.794000	64722.100000
2716.723000	64786.540000
2718.651000	64861.690000
2720.580000	64905.420000
2722.508000	64836.480000
2724.437000	64751.450000
2726.365000	64765.110000
2728.293000	64810.040000
2730.222000	64810.290000
2732.150000	64806.210000
2734.079000	64856.220000
2736.007000	64899.480000
2737.936000	64872.100000
2739.864000	64811.280000
2741.793000	64718.650000
2743.721000	64651.440000
2745.650000	64698.130000
2747.578000	64759.750000
2749.507000	64745.070000
2751.435000	64716.150000
2753.364000	64749.710000
2755.292000	64767.710000
2757.220000	64659.320000
2759.149000	64558.990000
2761.077000	64609.050000
2763.006000	64655.900000
2764.934000	64555.840000
2766.863000	64448.000000
2768.791000	64433.300000
2770.720000	64450.970000
2772.648000	64529.840000
2774.577000	64529.430000
2776.505000	64295.560000
2778.434000	64063.010000
2780.362000	63962.130000
2782.291000	63920.980000
2784.219000	63966.250000
2786.147000	63959.280000
2788.076000	63756.800000
2790.004000	63634.320000
2791.933000	63779.450000
2793.861000	63949.700000
2795.790000	64035.360000
2797.718000	64136.520000
2799.647000	64291.750000
2801.575000	64466.510000
2803.504000	64678.600000
2805.432000	64844.980000
2807.361000	64833.750000
2809.289000	64946.170000
2811.218000	65396.100000
2813.146000	65725.050000
2815.074000	65811.720000
2817.003000	65922.480000
2818.931000	66123.000000
2820.860000	66347.590000
2822.788000	66591.610000
2824.717000	66850.110000
2826.645000	67149.980000
2828.574000	67348.580000
2830.502000	67404.210000
2832.431000	67501.380000
2834.359000	67673.390000
2836.288000	67879.300000
2838.216000	68144.800000
2840.145000	68292.940000
2842.073000	68310.660000
2844.001000	68390.500000
2845.930000	68547.440000
2847.858000	68819.050000
2849.787000	69220.900000
2851.715000	69457.120000
2853.644000	69542.190000
2855.572000	69668.660000
2857.501000	69830.340000
2859.429000	69964.370000
2861.358000	70064.600000
2863.286000	70061.310000
2865.215000	70007.860000
2867.143000	70156.800000
2869.072000	70406.840000
2871.000000	70512.690000
2872.928000	70537.640000
2874.857000	70627.160000
2876.785000	70710.420000
2878.714000	70668.090000
2880.642000	70539.770000
2882.571000	70371.940000
2884.499000	70157.450000
2886.428000	69849.060000
2888.356000	69537.480000
2890.285000	69331.640000
2892.213000	69126.400000
2894.142000	68853.680000
2896.070000	68552.080000
2897.999000	68206.570000
2899.927000	67895.450000
2901.855000	67657.740000
2903.784000	67467.770000
2905.712000	67338.570000
2907.641000	67205.410000
2909.569000	66990.080000
2911.498000	66866.800000
2913.426000	66903.640000
2915.355000	66977.020000
2917.283000	67080.410000
2919.212000	67192.570000
2921.140000	67319.470000
2923.069000	67407.000000
2924.997000	67412.650000
2926.926000	67551.690000
2928.854000	67831.650000
2930.782000	67952.050000
2932.711000	67902.080000
2934.639000	67895.930000
2936.568000	67930.510000
2938.496000	67935.680000
2940.425000	67902.880000
2942.353000	67786.790000
2944.282000	67603.490000
2946.210000	67371.670000
2948.139000	67122.950000
2950.067000	66925.760000
2951.996000	66745.010000
2953.924000	66517.650000
2955.853000	66295.750000
2957.781000	66126.310000
2959.709000	65992.380000
2961.638000	65927.520000
2963.566000	65824.280000
2965.495000	65602.410000
2967.423000	65371.000000
2969.352000	65144.910000
2971.280000	64986.950000
2973.209000	64928.120000
2975.137000	64940.710000
2977.066000	65074.290000
2978.994000	65064.350000
2980.923000	64739.570000
2982.851000	64638.170000
2984.780000	64859.040000
2986.708000	64977.060000
2988.636000	64977.260000
2990.565000	64885.140000
2992.493000	64706.820000
2994.422000	64554.700000
2996.350000	64426.490000
2998.279000	64320.240000
3000.207000	64218.880000
3002.136000	64075.820000
3004.064000	63907.230000
3005.993000	63742.250000
3007.921000	63567.890000
3009.850000	63366.200000
3011.778000	63146.400000
3013.707000	62915.860000
3015.635000	62671.910000
3017.563000	62382.710000
3019.492000	62132.200000
3021.420000	61972.240000
3023.349000	61806.230000
3025.277000	61571.160000
3027.206000	61392.980000
3029.134000	61316.730000
3031.063000	61250.740000
3032.991000	61192.290000
3034.920000	61104.410000
3036.848000	60976.880000
3038.777000	60911.330000
3040.705000	60905.410000
3042.634000	60765.270000
3044.562000	60545.290000
3046.490000	60473.500000
3048.419000	60472.500000
3050.347000	60322.830000
3052.276000	60168.460000
3054.204000	60280.160000
3056.133000	60438.930000
3058.061000	60476.180000
3059.990000	60438.490000
3061.918000	60275.950000
3063.847000	60187.540000
3065.775000	60314.910000
3067.704000	60362.270000
3069.632000	60191.480000
3071.561000	59991.970000
3073.489000	59757.270000
3075.417000	59626.620000
3077.346000	59617.470000
3079.274000	59576.980000
3081.203000	59494.780000
3083.131000	59371.330000
3085.060000	59220.420000
3086.988000	59149.260000
3088.917000	59096.960000
3090.845000	58882.700000
3092.774000	58649.100000
3094.702000	58618.280000
3096.631000	58661.360000
3098.559000	58687.120000
3100.488000	58710.320000
3102.416000	58715.130000
3104.344000	58765.630000
3106.273000	58907.720000
3108.201000	59012.390000
3110.130000	58993.110000
3112.058000	59159.390000
3113.987000	59629.290000
3115.915000	59972.130000
3117.844000	60188.250000
3119.772000	60336.200000
3121.701000	60455.610000
3123.629000	60746.950000
3125.558000	61144.100000
3127.486000	61485.800000
3129.415000	61815.500000
3131.343000	62206.690000
3133.271000	62587.520000
3135.200000	62857.610000
3137.128000	63156.410000
3139.057000	63561.470000
3140.985000	63975.800000
3142.914000	64334.840000
3144.842000	64777.360000
3146.771000	65354.500000
3148.699000	65770.800000
3150.628000	65996.160000
3152.556000	66344.640000
3154.485000	66814.050000
3156.413000	67336.950000
3158.342000	67864.160000
3160.270000	68267.530000
3162.198000	68593.490000
3164.127000	68876.130000
3166.055000	69151.390000
3167.984000	69459.620000
3169.912000	69753.450000
3171.841000	70058.410000
3173.769000	70245.500000
3175.698000	70238.050000
3177.626000	70259.730000
3179.555000	70354.890000
3181.483000	70312.050000
3183.412000	70111.570000
3185.340000	69893.170000
3187.269000	69650.310000
3189.197000	69340.110000
3191.125000	68988.600000
3193.054000	68645.520000
3194.982000	68282.020000
3196.911000	67862.890000
3198.839000	67414.950000
3200.768000	66941.210000
3202.696000	66461.450000
3204.625000	65962.970000
3206.553000	65516.390000
3208.482000	65142.930000
3210.410000	64728.710000
3212.339000	64247.350000
3214.267000	63997.970000
3216.196000	63906.040000
3218.124000	63561.120000
3220.052000	63115.520000
3221.981000	62865.230000
3223.909000	62671.540000
3225.838000	62380.790000
3227.766000	62093.060000
3229.695000	61889.870000
3231.623000	61658.070000
3233.552000	61340.640000
3235.480000	61087.790000
3237.409000	60944.090000
3239.337000	60624.900000
3241.266000	60118.730000
3243.194000	59634.680000
3245.123000	59165.850000
3247.051000	58714.900000
3248.979000	58237.080000
3250.908000	57662.180000
3252.836000	57033.690000
3254.765000	56344.310000
3256.693000	55695.530000
3258.622000	55197.740000
3260.550000	54615.450000
3262.479000	53888.930000
3264.407000	53242.330000
3266.336000	52701.870000
3268.264000	52225.630000
3270.193000	51804.140000
3272.121000	51401.700000
3274.050000	51002.430000
3275.978000	50547.960000
3277.906000	50125.450000
3279.835000	49802.450000
3281.763000	49577.380000
3283.692000	49512.500000
3285.620000	49390.090000
3287.549000	49130.980000
3289.477000	48886.330000
3291.406000	48662.960000
3293.334000	48479.750000
3295.263000	48325.170000
3297.191000	48147.640000
3299.120000	47965.850000
3301.048000	47846.840000
3302.977000	47687.340000
3304.905000	47335.070000
3306.833000	47036.530000
3308.762000	46901.710000
3310.690000	46747.660000
3312.619000	46529.910000
3314.547000	46280.540000
3316.476000	46005.740000
3318.404000	45833.110000
3320.333000	45717.250000
3322.261000	45539.190000
3324.190000	45313.950000
3326.118000	45002.700000
3328.047000	44745.790000
3329.975000	44694.940000
3331.904000	44591.870000
3333.832000	44356.390000
3335.760000	44137.220000
3337.689000	43953.470000
3339.617000	43771.610000
3341.546000	43608.300000
3343.474000	43624.550000
3345.403000	43690.290000
3347.331000	43594.210000
3349.260000	43450.660000
3351.188000	43319.180000
3353.117000	43240.070000
3355.045000	43275.580000
3356.974000	43227.040000
3358.902000	43053.960000
3360.831000	42886.690000
3362.759000	42747.910000
3364.688000	42776.130000
3366.616000	42866.680000
3368.544000	42812.460000
3370.473000	42682.810000
3372.401000	42469.660000
3374.330000	42323.070000
3376.258000	42331.630000
3378.187000	42346.160000
3380.115000	42348.950000
3382.044000	42339.890000
3383.972000	42313.830000
3385.901000	42149.250000
3387.829000	41962.860000
3389.758000	41993.280000
3391.686000	42067.750000
3393.615000	42064.830000
3395.543000	41983.830000
3397.471000	41769.960000
3399.400000	41634.330000
3401.328000	41613.350000
3403.257000	41579.390000
3405.185000	41539.310000
3407.114000	41577.930000
3409.042000	41614.500000
3410.971000	41452.850000
3412.899000	41298.830000
3414.828000	41328.290000
3416.756000	41335.260000
3418.685000	41242.610000
3420.613000	41223.500000
3422.542000	41298.770000
3424.470000	41274.800000
3426.398000	41177.440000
3428.327000	41095.370000
3430.255000	41034.070000
3432.184000	41002.710000
3434.112000	40994.100000
3436.041000	41026.620000
3437.969000	41007.630000
3439.898000	40888.200000
3441.826000	40836.650000
3443.755000	40845.320000
3445.683000	40809.560000
3447.612000	40744.570000
3449.540000	40649.950000
3451.469000	40586.110000
3453.397000	40613.840000
3455.325000	40639.840000
3457.254000	40626.160000
3459.182000	40609.820000
3461.111000	40592.930000
3463.039000	40605.300000
3464.968000	40627.590000
3466.896000	40599.270000
3468.825000	40551.230000
3470.753000	40506.830000
3472.682000	40469.000000
3474.610000	40436.170000
3476.539000	40420.370000
3478.467000	40424.120000
3480.396000	40423.140000
3482.324000	40415.120000
3484.252000	40385.910000
3486.181000	40355.160000
3488.109000	40346.800000
3490.038000	40344.420000
3491.966000	40325.240000
3493.895000	40367.460000
3495.823000	40525.580000
3497.752000	40510.160000
3499.680000	40355.510000
3501.609000	40263.810000
3503.537000	40213.050000
3505.466000	40177.440000
3507.394000	40170.160000
3509.323000	40220.540000
3511.251000	40221.990000
3513.179000	40113.670000
3515.108000	40139.980000
3517.036000	40262.810000
3518.965000	40294.300000
3520.893000	40265.890000
3522.822000	40211.450000
3524.750000	40139.690000
3526.679000	40001.880000
3528.607000	39987.800000
3530.536000	40142.630000
3532.464000	40071.290000
3534.393000	39837.240000
3536.321000	39863.820000
3538.250000	39976.170000
3540.178000	39945.540000
3542.106000	39912.520000
3544.035000	39963.700000
3545.963000	40004.960000
3547.892000	40028.020000
3549.820000	39934.020000
3551.749000	39780.930000
3553.677000	39825.270000
3555.606000	39901.610000
3557.534000	39808.510000
3559.463000	39765.370000
3561.391000	39887.070000
3563.320000	39847.690000
3565.248000	39594.430000
3567.177000	39559.910000
3569.105000	39658.470000
3571.033000	39749.220000
3572.962000	39754.890000
3574.890000	39500.740000
3576.819000	39368.410000
3578.747000	39481.170000
3580.676000	39486.680000
3582.604000	39384.570000
3584.533000	39428.730000
3586.461000	39535.270000
3588.390000	39639.790000
3590.318000	39648.520000
3592.247000	39475.060000
3594.175000	39389.700000
3596.104000	39473.990000
3598.032000	39438.820000
3599.960000	39343.310000
3601.889000	39363.590000
3603.817000	39414.910000
3605.746000	39420.430000
3607.674000	39422.980000
3609.603000	39446.640000
3611.531000	39436.410000
3613.460000	39391.400000
3615.388000	39281.070000
3617.317000	39181.280000
3619.245000	39259.810000
3621.174000	39312.090000
3623.102000	39208.930000
3625.031000	39134.780000
3626.959000	39111.600000
3628.887000	39127.180000
3630.816000	39165.940000
3632.744000	39189.360000
3634.673000	39218.360000
3636.601000	39296.610000
3638.530000	39308.770000
3640.458000	39205.630000
3642.387000	39110.920000
3644.315000	39045.150000
3646.244000	39089.140000
3648.172000	39162.330000
3650.101000	39173.550000
3652.029000	39177.130000
3653.958000	39191.230000
3655.886000	39220.580000
3657.814000	39257.170000
3659.743000	39221.560000
3661.671000	39165.930000
3663.600000	39197.240000
3665.528000	39209.980000
3667.457000	39121.210000
3669.385000	39080.770000
3671.314000	39096.030000
3673.242000	39073.020000
3675.171000	39028.300000
3677.099000	38967.070000
3679.028000	38961.320000
3680.956000	39136.160000
3682.885000	39169.590000
3684.813000	39024.040000
3686.741000	39012.850000
3688.670000	39085.120000
3690.598000	39095.060000
3692.527000	39088.030000
3694.455000	39098.060000
3696.384000	39091.100000
3698.312000	39058.820000
3700.241000	39090.240000
3702.169000	39162.230000
3704.098000	39244.610000
3706.026000	39246.690000
3707.955000	39002.400000
3709.883000	38895.480000
3711.812000	39003.540000
3713.740000	39120.680000
3715.668000	39205.460000
3717.597000	39122.710000
3719.525000	39023.050000
3721.454000	39013.100000
3723.382000	39057.390000
3725.311000	39155.350000
3727.239000	39210.120000
3729.168000	39213.160000
3731.096000	39094.630000
3733.025000	39016.230000
3734.953000	39154.040000
3736.882000	39216.050000
3738.810000	39135.710000
3740.739000	39138.600000
3742.667000	39198.860000
3744.595000	39240.350000
3746.524000	39251.470000
3748.452000	39193.210000
3750.381000	39201.370000
3752.309000	39302.100000
3754.238000	39354.390000
3756.166000	39347.170000
3758.095000	39194.130000
3760.023000	39103.140000
3761.952000	39258.670000
3763.880000	39296.590000
3765.809000	39175.010000
3767.737000	39133.320000
3769.666000	39154.150000
3771.594000	39243.180000
3773.522000	39294.830000
3775.451000	39234.730000
3777.379000	39214.530000
3779.308000	39245.720000
3781.236000	39322.700000
3783.165000	39403.110000
3785.093000	39436.630000
3787.022000	39431.770000
3788.950000	39364.850000
3790.879000	39410.730000
3792.807000	39534.980000
3794.736000	39484.910000
3796.664000	39397.520000
3798.593000	39396.590000
3800.521000	39446.040000
3802.449000	39559.170000
3804.378000	39589.220000
3806.306000	39541.610000
3808.235000	39407.250000
3810.163000	39278.840000
3812.092000	39195.610000
3814.020000	39226.820000
3815.949000	39391.320000
3817.877000	39393.630000
3819.806000	39349.000000
3821.734000	39468.370000
3823.663000	39546.640000
3825.591000	39487.800000
3827.520000	39505.070000
3829.448000	39592.700000
3831.376000	39568.600000
3833.305000	39524.660000
3835.233000	39556.200000
3837.162000	39584.790000
3839.090000	39594.870000
3841.019000	39582.100000
3842.947000	39567.750000
3844.876000	39625.290000
3846.804000	39672.820000
3848.733000	39642.610000
3850.661000	39641.710000
3852.590000	39675.110000
3854.518000	39721.730000
3856.447000	39737.600000
3858.375000	39728.700000
3860.303000	39675.060000
3862.232000	39552.300000
3864.160000	39472.300000
3866.089000	39457.250000
3868.017000	39587.860000
3869.946000	39683.320000
3871.874000	39636.660000
3873.803000	39605.430000
3875.731000	39601.680000
3877.660000	39673.930000
3879.588000	39723.490000
3881.517000	39532.170000
3883.445000	39401.190000
3885.374000	39480.180000
3887.302000	39441.270000
3889.230000	39331.290000
3891.159000	39362.950000
3893.087000	39426.010000
3895.016000	39468.760000
3896.944000	39439.050000
3898.873000	39331.290000
3900.801000	39218.490000
3902.730000	39171.990000
3904.658000	39274.680000
3906.587000	39357.200000
3908.515000	39371.380000
3910.444000	39370.770000
3912.372000	39374.810000
3914.301000	39369.640000
3916.229000	39348.890000
3918.157000	39307.440000
3920.086000	39240.370000
3922.014000	39165.420000
3923.943000	39191.350000
3925.871000	39261.410000
3927.800000	39356.930000
3929.728000	39308.540000
3931.657000	39158.720000
3933.585000	39162.110000
3935.514000	39196.020000
3937.442000	39129.130000
3939.371000	39106.360000
3941.299000	39188.550000
3943.228000	39102.510000
3945.156000	38986.580000
3947.084000	39118.090000
3949.013000	39197.540000
3950.941000	39114.020000
3952.870000	39046.500000
3954.798000	39012.840000
3956.727000	39014.890000
3958.655000	39027.780000
3960.584000	39046.180000
3962.512000	39045.280000
3964.441000	39031.890000
3966.369000	39072.230000
3968.298000	39094.700000
3970.226000	39025.620000
3972.155000	38964.930000
3974.083000	38929.980000
3976.011000	39014.620000
3977.940000	39092.210000
3979.868000	38958.110000
3981.797000	38877.740000
3983.725000	38936.250000
3985.654000	38957.330000
3987.582000	38956.840000
3989.511000	38885.940000
3991.439000	38840.480000
3993.368000	38881.000000
3995.296000	38900.590000
3997.225000	38882.690000
3999.153000	38785.350000
4001.082000	38756.620000
4003.010000	38870.930000
4004.938000	38847.050000
4006.867000	38715.580000
4008.795000	38694.290000
4010.724000	38727.880000
4012.652000	38758.370000
4014.581000	38780.270000
4016.509000	38806.050000
4018.438000	38819.850000
4020.366000	38762.710000
4022.295000	38643.250000
4024.223000	38675.620000
4026.152000	38824.970000
4028.080000	38900.210000
4030.009000	38915.840000
4031.937000	38824.850000
4033.865000	38738.790000
4035.794000	38768.040000
4037.722000	38795.620000
4039.651000	38734.860000
4041.579000	38682.350000
4043.508000	38660.110000
4045.436000	38638.360000
4047.365000	38666.870000
4049.293000	38713.450000
4051.222000	38683.500000
4053.150000	38642.310000
4055.079000	38631.310000
4057.007000	38664.190000
4058.936000	38646.040000
4060.864000	38542.200000
4062.792000	38536.640000
4064.721000	38614.450000
4066.649000	38564.600000
4068.578000	38550.110000
4070.506000	38615.140000
4072.435000	38655.150000
4074.363000	38672.890000
4076.292000	38672.010000
4078.220000	38661.140000
4080.149000	38636.720000
4082.077000	38686.550000
4084.006000	38753.470000
4085.934000	38729.220000
4087.863000	38733.580000
4089.791000	38731.130000
4091.719000	38660.660000
4093.648000	38605.180000
4095.576000	38655.390000
4097.505000	38685.500000
4099.434000	38643.390000
4101.362000	38621.350000
4103.291000	38656.710000
4105.219000	38657.530000
4107.147000	38626.510000
4109.076000	38601.050000
4111.004000	38624.790000
4112.933000	38702.680000
4114.861000	38740.040000
4116.790000	38603.340000
4118.718000	38430.890000
4120.646000	38508.120000
4122.575000	38607.680000
4124.503000	38532.600000
4126.432000	38470.660000
4128.360000	38539.560000
4130.289000	38686.400000
4132.217000	38723.640000
4134.146000	38623.890000
4136.074000	38523.880000
4138.003000	38446.900000
4139.931000	38519.430000
4141.860000	38600.850000
4143.788000	38616.470000
4145.717000	38636.190000
4147.645000	38610.260000
4149.574000	38547.700000
4151.502000	38505.620000
4153.431000	38497.300000
4155.359000	38552.330000
4157.288000	38604.940000
4159.216000	38574.950000
4161.145000	38579.480000
4163.073000	38657.670000
4165.001000	38621.530000
4166.930000	38521.800000
4168.858000	38519.890000
4170.787000	38539.910000
4172.715000	38556.550000
4174.644000	38609.290000
4176.572000	38660.010000
4178.500000	38637.840000
4180.429000	38622.410000
4182.357000	38631.930000
4184.286000	38657.670000
4186.214000	38685.580000
4188.143000	38671.870000
4190.071000	38647.390000
4192.000000	38627.380000
4193.928000	38538.490000
4195.857000	38440.360000
4197.785000	38470.120000
4199.714000	38542.920000
4201.642000	38654.870000
4203.571000	38633.110000
4205.499000	38544.920000
4207.428000	38556.330000
4209.356000	38617.760000
4211.285000	38723.460000
4213.213000	38711.650000
4215.142000	38644.130000
4217.070000	38583.270000
4218.999000	38570.920000
4220.927000	38634.590000
4222.855000	38659.130000
4224.784000	38671.630000
4226.712000	38712.640000
4228.641000	38720.310000
4230.569000	38688.620000
4232.498000	38708.670000
4234.426000	38742.920000
4236.354000	38754.410000
4238.283000	38726.860000
4240.211000	38667.250000
4242.140000	38757.910000
4244.068000	38856.370000
4245.997000	38791.260000
4247.925000	38795.740000
4249.854000	38873.710000
4251.782000	38811.820000
4253.711000	38735.640000
4255.639000	38757.610000
4257.568000	38755.030000
4259.496000	38747.570000
4261.425000	38861.970000
4263.353000	38984.080000
4265.282000	39055.290000
4267.210000	39087.510000
4269.139000	39094.270000
4271.067000	39105.010000
4272.996000	39115.180000
4274.924000	39116.020000
4276.853000	39160.460000
4278.781000	39220.070000
4280.709000	39259.880000
4282.638000	39261.680000
4284.566000	39216.730000
4286.495000	39194.770000
4288.423000	39204.120000
4290.352000	39275.800000
4292.280000	39335.550000
4294.208000	39371.110000
4296.137000	39343.510000
4298.065000	39322.370000
4299.994000	39338.080000
4301.922000	39508.490000
4303.851000	39746.580000
4305.779000	39671.240000
4307.708000	39567.180000
4309.636000	39550.930000
4311.565000	39579.700000
4313.493000	39638.580000
4315.422000	39729.010000
4317.350000	39778.500000
4319.279000	39767.180000
4321.207000	39793.030000
4323.136000	39800.670000
4325.064000	39700.390000
4326.993000	39708.380000
4328.921000	39821.390000
4330.850000	39757.430000
4332.778000	39727.460000
4334.707000	39863.950000
4336.635000	39963.650000
4338.563000	40016.520000
4340.492000	40018.800000
4342.420000	40050.460000
4344.349000	40132.780000
4346.277000	40087.770000
4348.206000	40018.740000
4350.134000	40084.390000
4352.063000	40082.400000
4353.991000	40017.080000
4355.919000	40140.320000
4357.848000	40232.170000
4359.776000	40094.740000
4361.705000	40138.210000
4363.633000	40290.020000
4365.562000	40338.240000
4367.490000	40304.250000
4369.419000	40171.920000
4371.347000	40319.590000
4373.276000	40520.310000
4375.204000	40482.990000
4377.133000	40433.370000
4379.061000	40403.410000
4380.990000	40406.830000
4382.918000	40417.710000
4384.847000	40411.590000
4386.775000	40490.180000
4388.704000	40601.100000
4390.632000	40642.450000
4392.561000	40646.520000
4394.489000	40625.070000
4396.417000	40677.420000
4398.346000	40749.520000
4400.274000	40800.340000
4402.203000	40877.400000
4404.131000	40923.880000
4406.060000	40625.360000
4407.988000	40559.730000
4409.917000	40916.390000
4411.845000	40878.570000
4413.773000	40702.400000
4415.702000	40685.110000
4417.630000	40779.730000
4419.559000	40947.130000
4421.487000	41064.230000
4423.416000	41107.410000
4425.344000	41024.300000
4427.273000	41019.650000
4429.201000	41092.670000
4431.130000	41319.720000
4433.058000	41362.250000
4434.987000	41198.370000
4436.915000	41135.640000
4438.844000	41154.560000
4440.772000	41254.630000
4442.701000	41335.150000
4444.629000	41376.130000
4446.558000	41318.970000
4448.486000	41334.640000
4450.415000	41433.070000
4452.343000	41492.840000
4454.271000	41474.710000
4456.200000	41293.180000
4458.128000	41323.680000
4460.057000	41457.380000
4461.985000	41485.800000
4463.914000	41478.950000
4465.842000	41453.640000
4467.771000	41423.770000
4469.699000	41456.610000
4471.627000	41612.690000
4473.556000	41665.850000
4475.484000	41650.030000
4477.413000	41645.820000
4479.341000	41561.090000
4481.270000	41430.010000
4483.198000	41563.800000
4485.127000	41712.590000
4487.055000	41723.860000
4488.984000	41786.320000
4490.912000	41855.350000
4492.841000	41848.710000
4494.769000	41822.590000
4496.698000	41796.830000
4498.626000	41841.290000
4500.555000	41918.150000
4502.483000	42016.930000
4504.412000	42046.140000
4506.340000	42009.890000
4508.269000	41876.220000
4510.197000	41852.710000
4512.125000	41925.310000
4514.054000	41965.120000
4515.982000	42059.490000
4517.911000	42245.350000
4519.839000	42259.930000
4521.768000	42215.730000
4523.696000	42184.500000
4525.625000	42277.810000
4527.553000	42394.230000
4529.481000	42282.130000
4531.410000	42159.180000
4533.338000	42089.470000
4535.267000	42213.680000
4537.195000	42346.530000
4539.124000	42391.650000
4541.052000	42383.070000
4542.981000	42358.340000
4544.909000	42352.900000
4546.838000	42383.680000
4548.766000	42443.990000
4550.695000	42530.090000
4552.623000	42549.890000
4554.552000	42483.070000
4556.480000	42494.410000
4558.409000	42563.800000
4560.337000	42696.300000
4562.266000	42670.140000
4564.194000	42583.300000
4566.123000	42619.270000
4568.051000	42666.670000
4569.979000	42707.700000
4571.908000	42740.910000
4573.836000	42803.980000
4575.765000	42910.100000
4577.693000	42856.900000
4579.622000	42744.150000
4581.550000	42625.600000
4583.479000	42686.290000
4585.407000	42835.650000
4587.335000	42911.530000
4589.264000	42936.180000
4591.192000	42928.480000
4593.121000	42969.190000
4595.049000	43005.560000
4596.978000	43019.460000
4598.906000	43041.250000
4600.835000	43094.130000
4602.763000	43217.980000
4604.692000	43170.760000
4606.620000	43051.500000
4608.549000	43017.700000
4610.477000	43090.500000
4612.406000	43213.620000
4614.334000	43091.140000
4616.263000	43108.760000
4618.191000	43343.530000
4620.120000	43325.960000
4622.048000	43225.090000
4623.977000	43120.570000
4625.905000	43337.800000
4627.833000	43590.970000
4629.762000	43468.630000
4631.690000	43389.090000
4633.619000	43389.500000
4635.547000	43511.270000
4637.476000	43554.910000
4639.404000	43515.100000
4641.333000	43577.540000
4643.261000	43593.660000
4645.189000	43483.640000
4647.118000	43646.660000
4649.046000	43778.730000
4650.975000	43633.530000
4652.903000	43597.890000
4654.832000	43629.920000
4656.760000	43642.730000
4658.689000	43703.700000
4660.617000	43807.810000
4662.546000	43984.800000
4664.474000	43971.360000
4666.403000	43774.950000
4668.331000	43870.540000
4670.260000	44006.430000
4672.188000	44088.330000
4674.117000	44049.710000
4676.045000	44027.730000
4677.974000	44148.130000
4679.902000	44142.360000
4681.831000	44117.720000
4683.759000	44209.220000
4685.688000	44299.480000
4687.616000	44313.160000
4689.544000	44014.450000
4691.473000	44012.820000
4693.401000	44269.810000
4695.330000	44355.730000
4697.258000	44295.630000
4699.187000	44125.660000
4701.115000	44257.770000
4703.043000	44377.960000
4704.972000	44363.130000
4706.900000	44329.940000
4708.829000	44307.410000
4710.757000	44301.360000
4712.686000	44395.200000
4714.614000	44493.700000
4716.543000	44477.770000
4718.471000	44617.660000
4720.400000	44779.920000
4722.328000	44665.420000
4724.257000	44641.420000
4726.185000	44700.430000
4728.114000	44675.520000
4730.042000	44646.840000
4731.971000	44630.030000
4733.899000	44603.010000
4735.828000	44605.540000
4737.756000	44656.770000
4739.685000	44891.380000
4741.613000	44986.260000
4743.542000	44783.540000
4745.470000	44778.440000
4747.398000	44856.980000
4749.327000	44943.050000
4751.255000	44995.760000
4753.184000	44993.760000
4755.112000	44887.900000
4757.041000	44880.940000
4758.969000	44943.070000
4760.897000	45052.840000
4762.826000	45036.530000
4764.754000	44950.900000
4766.683000	44901.450000
4768.611000	44999.080000
4770.540000	45176.810000
4772.468000	45184.510000
4774.397000	45225.020000
4776.325000	45300.270000
4778.254000	45255.430000
4780.182000	45164.240000
4782.111000	45066.020000
4784.039000	45148.090000
4785.968000	45202.130000
4787.896000	45175.520000
4789.825000	45269.450000
4791.753000	45379.450000
4793.682000	45456.260000
4795.610000	45439.600000
4797.539000	45382.320000
4799.467000	45313.030000
4801.396000	45310.710000
4803.324000	45335.730000
4805.252000	45351.480000
4807.181000	45406.560000
4809.109000	45441.700000
4811.038000	45390.320000
4812.966000	45452.290000
4814.895000	45561.070000
4816.823000	45652.080000
4818.751000	45592.940000
4820.680000	45472.650000
4822.608000	45400.240000
4824.537000	45473.220000
4826.465000	45606.690000
4828.394000	45675.630000
4830.322000	45600.810000
4832.251000	45469.630000
4834.179000	45471.210000
4836.108000	45516.250000
4838.036000	45566.550000
4839.965000	45552.010000
4841.893000	45607.860000
4843.822000	45698.950000
4845.750000	45622.720000
4847.679000	45616.400000
4849.607000	45682.450000
4851.536000	45683.840000
4853.464000	45628.690000
4855.393000	45565.330000
4857.321000	45733.540000
4859.250000	45818.910000
4861.178000	45782.710000
4863.106000	45805.480000
4865.035000	45840.170000
4866.963000	45864.520000
4868.892000	45802.150000
4870.820000	45793.210000
4872.749000	45848.390000
4874.677000	45733.500000
4876.605000	45732.890000
4878.534000	45879.760000
4880.462000	45877.650000
4882.391000	45860.830000
4884.319000	45875.390000
4886.248000	45930.420000
4888.176000	45971.320000
4890.105000	45991.210000
4892.033000	46083.220000
4893.962000	46061.650000
4895.890000	45902.540000
4897.819000	46036.120000
4899.747000	46094.540000
4901.676000	45993.340000
4903.604000	45848.810000
4905.533000	45850.310000
4907.461000	46023.850000
4909.390000	46020.330000
4911.318000	46086.240000
4913.247000	46252.590000
4915.175000	46214.460000
4917.104000	46211.180000
4919.032000	46281.810000
4920.960000	46152.740000
4922.889000	46118.160000
4924.817000	46230.510000
4926.746000	46320.290000
4928.674000	46278.840000
4930.603000	46169.020000
4932.531000	46453.800000
4934.459000	46479.390000
4936.388000	46224.400000
4938.316000	46365.940000
4940.245000	46420.770000
4942.173000	46342.550000
4944.102000	46307.830000
4946.030000	46336.340000
4947.959000	46418.700000
4949.887000	46540.900000
4951.816000	46640.980000
4953.744000	46661.370000
4955.673000	46418.030000
4957.601000	46354.090000
4959.530000	46445.860000
4961.458000	46547.050000
4963.387000	46582.080000
4965.315000	46576.850000
4967.244000	46588.470000
4969.172000	46600.480000
4971.101000	46618.850000
4973.029000	46670.880000
4974.958000	46664.800000
4976.886000	46634.840000
4978.814000	46626.430000
4980.743000	46598.190000
4982.671000	46621.230000
4984.600000	46785.870000
4986.528000	46693.880000
4988.457000	46583.510000
4990.385000	46708.770000
4992.313000	46663.090000
4994.242000	46676.380000
4996.170000	46876.230000
4998.099000	46944.400000
5000.027000	46935.960000
5001.956000	46888.710000
5003.884000	46847.310000
5005.813000	46839.580000
5007.741000	46873.050000
5009.670000	46898.410000
5011.598000	47003.200000
5013.527000	47164.420000
5015.455000	47178.020000
5017.384000	47143.330000
5019.312000	47103.110000
5021.241000	47108.770000
5023.169000	47137.300000
5025.098000	47160.640000
5027.026000	47122.670000
5028.955000	47090.590000
5030.883000	47076.200000
5032.812000	47095.060000
5034.740000	47062.100000
5036.668000	47069.060000
5038.597000	47228.680000
5040.525000	47235.750000
5042.454000	47223.510000
5044.382000	47318.190000
5046.311000	47300.770000
5048.239000	47256.270000
5050.167000	47234.830000
5052.096000	47214.870000
5054.024000	47204.690000
5055.953000	47218.220000
5057.881000	47337.550000
5059.810000	47432.110000
5061.738000	47452.550000
5063.667000	47292.530000
5065.595000	47302.410000
5067.524000	47432.050000
5069.452000	47441.530000
5071.381000	47492.290000
5073.309000	47550.860000
5075.238000	47552.140000
5077.166000	47463.290000
5079.095000	47401.890000
5081.023000	47469.720000
5082.952000	47546.130000
5084.880000	47578.980000
5086.809000	47546.570000
5088.737000	47489.880000
5090.666000	47399.800000
5092.594000	47310.610000
5094.522000	47557.840000
5096.451000	47590.780000
5098.379000	47434.460000
5100.308000	47527.400000
5102.236000	47583.070000
5104.165000	47590.430000
5106.093000	47591.960000
5108.021000	47620.620000
5109.950000	47623.420000
5111.878000	47545.390000
5113.807000	47541.220000
5115.735000	47509.020000
5117.664000	47415.140000
5119.592000	47615.770000
5121.521000	47615.820000
5123.449000	47365.550000
5125.378000	47589.040000
5127.306000	47751.720000
5129.235000	47776.030000
5131.163000	47725.630000
5133.092000	47765.200000
5135.020000	47811.090000
5136.949000	47725.680000
5138.877000	47708.900000
5140.806000	47708.510000
5142.734000	47681.980000
5144.663000	47802.410000
5146.591000	47859.240000
5148.520000	47814.690000
5150.448000	47885.450000
5152.376000	47872.300000
5154.305000	47811.680000
5156.233000	47909.320000
5158.162000	47967.540000
5160.090000	47955.920000
5162.019000	47852.920000
5163.947000	48051.890000
5165.875000	48209.830000
5167.804000	48117.850000
5169.732000	48081.580000
5171.661000	48126.240000
5173.589000	48206.050000
5175.518000	48058.070000
5177.446000	48012.330000
5179.375000	48063.070000
5181.303000	48107.050000
5183.232000	48038.680000
5185.160000	47982.980000
5187.089000	48063.800000
5189.017000	48085.870000
5190.946000	48109.370000
5192.874000	48153.490000
5194.803000	48092.780000
5196.731000	48194.160000
5198.660000	48384.980000
5200.588000	48341.120000
5202.517000	48427.110000
5204.445000	48544.620000
5206.374000	48563.770000
5208.302000	48442.100000
5210.230000	48372.570000
5212.159000	48421.370000
5214.087000	48268.600000
5216.016000	48296.220000
5217.944000	48445.840000
5219.873000	48301.140000
5221.801000	48353.280000
5223.729000	48494.650000
5225.658000	48563.950000
5227.586000	48538.820000
5229.515000	48507.410000
5231.443000	48507.190000
5233.372000	48481.730000
5235.300000	48491.500000
5237.229000	48523.360000
5239.157000	48498.930000
5241.086000	48523.160000
5243.014000	48645.140000
5244.943000	48928.530000
5246.871000	48703.590000
5248.800000	48525.200000
5250.728000	48578.090000
5252.657000	48567.980000
5254.585000	48535.960000
5256.514000	48538.680000
5258.442000	48702.840000
5260.371000	48672.090000
5262.299000	48628.150000
5264.228000	48705.100000
5266.156000	48611.930000
5268.084000	48658.210000
5270.013000	48799.750000
5271.941000	48547.950000
5273.870000	48540.370000
5275.798000	48657.550000
5277.727000	48679.890000
5279.655000	48701.000000
5281.583000	48676.050000
5283.512000	48591.650000
5285.440000	48422.110000
5287.369000	48593.550000
5289.297000	48872.320000
5291.226000	48735.240000
5293.154000	48625.960000
5295.083000	48599.460000
5297.011000	48666.690000
5298.940000	48697.130000
5300.868000	48714.750000
5302.797000	48746.160000
5304.725000	48860.190000
5306.654000	48768.250000
5308.582000	48633.320000
5310.511000	48619.250000
5312.439000	48807.200000
5314.368000	48887.850000
5316.296000	48809.370000
5318.225000	48741.090000
5320.153000	48786.960000
5322.082000	48831.830000
5324.010000	48752.900000
5325.938000	48705.360000
5327.867000	48792.110000
5329.795000	48950.660000
5331.724000	48783.730000
5333.652000	48695.170000
5335.581000	48694.800000
5337.509000	48722.490000
5339.438000	48828.530000
5341.366000	48811.670000
5343.294000	48681.250000
5345.223000	48864.870000
5347.151000	48902.610000
5349.080000	48842.620000
5351.008000	48818.070000
5352.937000	48951.030000
5354.865000	48937.240000
5356.794000	48718.010000
5358.722000	48618.670000
5360.651000	48679.130000
5362.579000	48744.490000
5364.508000	48646.190000
5366.436000	48809.200000
5368.365000	48931.000000
5370.293000	48902.190000
5372.222000	48804.820000
5374.150000	48675.090000
5376.079000	48597.440000
5378.007000	48672.120000
5379.936000	48598.300000
5381.864000	48620.890000
5383.792000	48739.070000
5385.721000	48719.890000
5387.649000	48570.230000
5389.578000	48507.590000
5391.506000	48679.750000
5393.435000	48692.430000
5395.363000	48567.320000
5397.292000	48452.950000
5399.220000	48743.960000
5401.148000	48562.980000
5403.077000	48421.820000
5405.005000	48632.310000
5406.934000	48727.820000
5408.862000	48752.890000
5410.791000	48724.930000
5412.719000	48641.240000
5414.648000	48702.220000
5416.576000	48739.920000
5418.505000	48685.900000
5420.433000	48591.500000
5422.362000	48641.520000
5424.290000	48705.300000
5426.219000	48634.570000
5428.147000	48627.330000
5430.076000	48598.240000
5432.004000	48512.860000
5433.933000	48318.950000
5435.861000	48455.850000
5437.790000	48591.950000
5439.718000	48511.430000
5441.646000	48346.070000
5443.575000	48468.330000
5445.503000	48647.680000
5447.432000	48492.450000
5449.360000	48306.440000
5451.289000	48342.340000
5453.217000	48504.870000
5455.146000	48245.550000
5457.074000	48350.130000
5459.002000	48489.140000
5460.931000	48390.630000
5462.859000	48348.370000
5464.788000	48333.630000
5466.716000	48346.430000
5468.645000	48420.700000
5470.573000	48248.800000
5472.502000	48284.600000
5474.430000	48494.640000
5476.359000	48284.520000
5478.287000	48188.920000
5480.216000	48156.260000
5482.144000	48126.700000
5484.073000	48322.580000
5486.001000	48301.720000
5487.930000	48166.450000
5489.858000	48161.000000
5491.787000	48100.850000
5493.715000	48038.700000
5495.644000	48031.090000
5497.572000	48190.090000
5499.500000	47953.820000
5501.429000	47962.080000
5503.357000	48385.980000
5505.286000	48336.640000
5507.214000	48117.150000
5509.143000	48001.100000
5511.071000	48157.330000
5513.000000	48007.180000
5514.928000	47974.430000
5516.856000	48066.950000
5518.785000	48149.260000
5520.713000	48090.800000
5522.642000	47932.510000
5524.570000	47757.700000
5526.499000	47701.590000
5528.427000	47848.300000
5530.356000	47936.830000
5532.284000	47859.020000
5534.213000	47731.930000
5536.141000	47928.640000
5538.070000	48042.650000
5539.998000	47744.790000
5541.927000	47842.320000
5543.855000	47847.870000
5545.784000	47840.480000
5547.712000	48047.380000
5549.641000	47948.570000
5551.569000	47807.830000
5553.498000	47749.920000
5555.426000	47842.140000
5557.354000	47695.140000
5559.283000	47629.590000
5561.211000	47704.820000
5563.140000	47687.320000
5565.068000	47724.310000
5566.997000	47650.010000
5568.925000	47444.120000
5570.854000	47455.680000
5572.782000	47462.190000
5574.710000	47505.160000
5576.639000	47593.110000
5578.567000	47354.350000
5580.496000	47380.440000
5582.424000	47453.160000
5584.353000	47319.430000
5586.281000	47316.080000
5588.210000	47390.290000
5590.138000	47401.220000
5592.067000	47221.420000
5593.995000	47356.290000
5595.924000	47300.430000
5597.852000	47142.820000
5599.781000	47276.320000
5601.709000	47106.570000
5603.638000	46996.600000
5605.566000	47010.100000
5607.495000	47044.920000
5609.423000	47138.950000
5611.352000	47197.820000
5613.280000	47174.610000
5615.208000	47042.390000
5617.137000	47016.170000
5619.065000	47027.470000
5620.994000	47008.740000
5622.922000	46818.410000
5624.851000	47068.390000
5626.779000	47141.960000
5628.708000	46889.950000
5630.636000	46788.910000
5632.564000	46894.740000
5634.493000	46862.360000
5636.421000	46631.550000
5638.350000	46549.810000
5640.278000	46591.290000
5642.207000	46667.230000
5644.135000	46695.000000
5646.064000	46546.460000
5647.992000	46551.200000
5649.921000	46435.930000
5651.849000	46174.580000
5653.778000	46358.620000
5655.706000	46427.800000
5657.635000	46476.850000
5659.563000	46555.890000
5661.492000	46494.620000
5663.420000	46364.800000
5665.349000	46415.940000
5667.277000	46612.730000
5669.206000	46253.880000
5671.134000	46339.450000
5673.063000	46366.210000
5674.991000	46152.320000
5676.919000	46246.070000
5678.848000	46259.980000
5680.776000	46204.090000
5682.705000	46134.980000
5684.633000	46115.330000
5686.562000	46184.370000
5688.490000	46155.220000
5690.418000	46029.720000
5692.347000	46125.360000
5694.275000	45993.210000
5696.204000	45924.680000
5698.132000	45983.260000
5700.061000	46000.080000
5701.989000	45794.970000
5703.918000	45741.070000
5705.846000	45826.260000
5707.775000	45741.540000
5709.703000	45672.290000
5711.632000	45761.610000
5713.560000	45830.020000
5715.489000	45564.150000
5717.417000	45647.950000
5719.346000	45663.700000
5721.274000	45580.860000
5723.203000	45533.440000
5725.131000	45632.830000
5727.060000	45489.770000
5728.988000	45315.370000
5730.917000	45398.980000
5732.845000	45536.160000
5734.773000	45524.450000
5736.702000	45490.220000
5738.630000	45534.940000
5740.559000	45353.010000
5742.487000	45194.540000
5744.416000	45144.580000
5746.344000	45187.350000
5748.272000	45159.880000
5750.201000	45100.270000
5752.129000	45103.570000
5754.058000	45137.640000
5755.986000	45018.170000
5757.915000	44985.230000
5759.843000	44957.180000
5761.772000	44859.270000
5763.700000	44645.170000
5765.629000	44882.010000
5767.557000	44982.090000
5769.486000	44859.670000
5771.414000	44644.330000
5773.343000	44550.740000
5775.271000	44526.820000
5777.200000	44510.580000
5779.128000	44473.930000
5781.057000	44527.310000
5782.985000	44427.230000
5784.914000	44364.960000
5786.842000	44430.950000
5788.771000	44542.470000
5790.699000	44432.620000
5792.627000	44325.730000
5794.556000	44273.960000
5796.484000	44196.230000
5798.413000	44284.640000
5800.341000	44360.380000
5802.270000	44425.790000
5804.198000	44499.810000
5806.126000	44182.750000
5808.055000	44116.530000
5809.983000	44086.360000
5811.912000	43953.550000
5813.840000	44084.850000
5815.769000	44146.950000
5817.697000	44133.580000
5819.626000	44033.240000
5821.554000	43772.990000
5823.483000	43813.910000
5825.411000	43910.410000
5827.340000	43869.300000
5829.268000	43592.320000
5831.197000	43600.610000
5833.125000	43503.480000
5835.054000	43530.160000
5836.982000	43719.600000
5838.911000	43484.790000
5840.839000	43406.430000
5842.768000	43405.680000
5844.696000	43402.890000
5846.625000	43357.810000
5848.553000	43282.400000
5850.481000	43442.850000
5852.410000	43450.640000
5854.338000	43066.550000
5856.267000	43058.240000
5858.195000	43134.770000
5860.124000	43137.920000
5862.052000	43095.510000
5863.980000	43168.980000
5865.909000	42999.050000
5867.837000	43056.740000
5869.766000	43080.220000
5871.694000	42787.480000
5873.623000	42963.630000
5875.551000	42765.700000
5877.480000	42671.960000
5879.408000	42814.350000
5881.337000	42691.950000
5883.265000	42670.590000
5885.194000	42618.480000
5887.122000	42511.580000
5889.051000	42387.390000
5890.979000	42429.140000
5892.908000	42404.160000
5894.836000	42257.030000
5896.765000	42103.370000
5898.693000	42300.750000
5900.622000	42212.450000
5902.550000	42175.210000
5904.479000	42185.160000
5906.407000	42145.120000
5908.335000	42165.570000
5910.264000	42053.460000
5912.192000	42103.360000
5914.121000	42230.890000
5916.049000	42012.090000
5917.978000	41913.450000
5919.906000	41984.760000
5921.834000	41983.050000
5923.763000	41775.510000
5925.691000	41646.230000
5927.620000	41806.440000
5929.548000	41802.160000
5931.477000	41635.620000
5933.405000	41555.450000
5935.334000	41715.740000
5937.262000	41559.780000
5939.191000	41446.950000
5941.119000	41494.410000
5943.048000	41328.180000
5944.976000	41530.150000
5946.905000	41432.680000
5948.833000	41210.930000
5950.762000	41135.310000
5952.690000	40880.880000
5954.619000	41068.390000
5956.547000	40981.630000
5958.476000	40728.450000
5960.404000	40841.120000
5962.333000	40834.490000
5964.261000	40840.990000
5966.189000	40902.460000
5968.118000	40934.870000
5970.046000	40713.950000
5971.975000	40915.290000
5973.903000	40710.840000
5975.832000	40429.300000
5977.760000	40429.140000
5979.688000	40504.400000
5981.617000	40477.450000
5983.545000	40524.960000
5985.474000	40513.800000
5987.402000	40305.210000
5989.331000	40448.140000
5991.259000	40316.840000
5993.188000	40160.990000
5995.116000	40077.560000
5997.045000	40012.450000
5998.973000	39975.250000
6000.902000	40086.450000
6002.830000	40099.610000
6004.759000	39946.070000
6006.687000	39714.810000
6008.616000	39869.000000
6010.544000	39988.710000
6012.473000	39796.230000
6014.401000	39437.030000
6016.330000	39493.630000
6018.258000	39648.450000
6020.187000	39598.110000
6022.115000	39533.000000
6024.043000	39541.880000
6025.972000	39339.830000
6027.900000	39285.610000
6029.829000	39378.870000
6031.757000	39461.610000
6033.686000	39399.440000
6035.614000	39117.140000
6037.542000	39052.520000
6039.471000	38991.970000
6041.399000	38946.570000
6043.328000	38964.720000
6045.256000	38974.790000
6047.185000	38880.400000
6049.113000	38727.070000
6051.042000	38664.290000
6052.970000	38738.670000
6054.899000	38668.100000
6056.827000	38595.230000
6058.756000	38608.320000
6060.684000	38637.450000
6062.613000	38607.860000
6064.541000	38564.300000
6066.470000	38345.940000
6068.398000	38323.620000
6070.327000	38313.170000
6072.255000	38154.180000
6074.184000	38208.700000
6076.112000	38244.050000
6078.041000	38082.290000
6079.969000	37930.750000
6081.897000	37956.450000
6083.826000	38043.240000
6085.754000	37868.190000
6087.683000	37796.630000
6089.611000	37803.250000
6091.540000	37756.070000
6093.468000	37565.510000
6095.396000	37491.270000
6097.325000	37482.890000
6099.253000	37466.490000
6101.182000	37454.700000
6103.110000	37544.620000
6105.039000	37495.010000
6106.967000	37364.640000
6108.896000	37250.610000
6110.824000	37120.290000
6112.753000	36870.500000
6114.681000	36885.370000
6116.610000	36930.570000
6118.538000	36841.920000
6120.467000	36781.510000
6122.395000	36968.100000
6124.324000	36867.680000
6126.252000	36711.610000
6128.181000	36660.910000
6130.109000	36648.540000
6132.038000	36579.990000
6133.966000	36538.940000
6135.895000	36483.290000
6137.823000	36339.940000
6139.751000	36269.420000
6141.680000	36313.460000
6143.608000	36258.310000
6145.537000	36088.280000
6147.465000	35928.120000
6149.394000	36016.810000
6151.322000	36175.540000
6153.250000	35958.600000
6155.179000	36062.350000
6157.107000	35885.370000
6159.036000	35792.890000
6160.964000	35740.250000
6162.893000	35561.840000
6164.821000	35620.270000
6166.750000	35482.280000
6168.678000	35373.680000
6170.607000	35330.600000
6172.535000	35307.620000
6174.464000	35257.670000
6176.392000	35291.960000
6178.321000	35248.070000
6180.249000	35173.500000
6182.178000	35095.350000
6184.106000	35013.940000
6186.035000	35049.180000
6187.963000	35023.090000
6189.892000	35001.050000
6191.820000	34904.890000
6193.749000	34731.370000
6195.677000	34671.210000
6197.605000	34443.650000
6199.534000	34402.910000
6201.462000	34385.870000
6203.391000	34407.970000
6205.319000	34540.620000
6207.248000	34320.720000
6209.176000	34175.400000
6211.104000	34216.620000
6213.033000	34115.440000
6214.961000	33887.070000
6216.890000	34013.210000
6218.818000	33992.620000
6220.747000	34067.320000
6222.675000	34021.520000
6224.604000	33853.470000
6226.532000	33711.440000
6228.461000	33711.130000
6230.389000	33672.110000
6232.318000	33508.740000
6234.246000	33547.240000
6236.175000	33678.950000
6238.103000	33505.510000
6240.032000	33269.810000
6241.960000	33258.450000
6243.889000	33346.140000
6245.817000	33325.190000
6247.746000	33176.600000
6249.674000	33094.070000
6251.603000	32965.230000
6253.531000	32935.150000
6255.459000	32922.840000
6257.388000	32935.570000
6259.316000	32965.840000
6261.245000	32854.150000
6263.173000	32711.270000
6265.102000	32661.400000
6267.030000	32615.800000
6268.958000	32536.680000
6270.887000	32436.590000
6272.815000	32264.710000
6274.744000	32363.090000
6276.672000	32348.880000
6278.601000	32300.940000
6280.529000	32244.730000
6282.458000	32122.250000
6284.386000	32041.190000
6286.315000	31987.330000
6288.243000	31969.630000
6290.172000	31992.140000
6292.100000	31933.490000
6294.029000	31713.410000
6295.957000	31694.200000
6297.886000	31616.580000
6299.814000	31666.570000
6301.743000	31660.550000
6303.671000	31555.440000
6305.600000	31467.070000
6307.528000	31311.440000
6309.457000	31425.530000
6311.385000	31329.900000
6313.313000	31226.490000
6315.242000	31245.420000
6317.170000	31258.390000
6319.099000	31034.700000
6321.027000	31004.930000
6322.956000	30953.170000
6324.884000	30941.370000
6326.813000	30942.720000
6328.741000	30861.180000
6330.669000	30792.430000
6332.598000	30493.010000
6334.526000	30574.900000
6336.455000	30698.150000
6338.383000	30623.540000
6340.312000	30454.710000
6342.240000	30608.200000
6344.169000	30388.510000
6346.097000	30291.600000
6348.026000	30194.030000
6349.954000	30121.690000
6351.883000	30130.950000
6353.811000	30117.660000
6355.740000	30026.390000
6357.668000	30018.340000
6359.597000	29920.240000
6361.525000	29773.220000
6363.454000	29744.200000
6365.382000	29893.460000
6367.311000	29723.150000
6369.239000	29644.030000
6371.167000	29650.000000
6373.096000	29691.990000
6375.024000	29637.800000
6376.953000	29434.690000
6378.881000	29429.990000
6380.810000	29408.180000
6382.738000	29322.390000
6384.667000	29309.170000
6386.595000	29335.550000
6388.523000	29309.970000
6390.452000	29205.610000
6392.380000	29088.650000
6394.309000	28972.980000
6396.237000	28994.890000
6398.166000	28966.390000
6400.094000	28891.310000
6402.023000	28889.100000
6403.951000	28796.250000
6405.880000	28586.630000
6407.808000	28661.940000
6409.737000	28492.700000
6411.665000	28405.670000
6413.594000	28588.520000
6415.522000	28555.190000
6417.451000	28376.610000
6419.379000	28390.080000
6421.308000	28312.460000
6423.236000	28157.500000
6425.165000	28032.620000
6427.093000	28003.020000
6429.021000	28098.310000
6430.950000	27915.920000
6432.878000	27880.490000
6434.807000	27843.950000
6436.735000	27871.640000
6438.664000	27914.190000
6440.592000	27815.940000
6442.521000	27602.980000
6444.449000	27643.900000
6446.377000	27596.870000
6448.306000	27581.600000
6450.234000	27533.660000
6452.163000	27442.690000
6454.091000	27409.540000
6456.020000	27369.190000
6457.948000	27218.290000
6459.877000	27125.260000
6461.805000	27220.240000
6463.734000	27250.920000
6465.662000	27113.910000
6467.591000	26977.660000
6469.519000	26860.720000
6471.448000	26767.470000
6473.376000	26862.620000
6475.305000	26810.430000
6477.233000	26704.830000
6479.162000	26671.750000
6481.090000	26644.500000
6483.019000	26622.520000
6484.947000	26632.980000
6486.875000	26530.810000
6488.804000	26613.170000
6490.732000	26566.430000
6492.661000	26368.360000
6494.589000	26343.920000
6496.518000	26366.720000
6498.446000	26275.310000
6500.375000	26245.000000
6502.303000	26252.620000
6504.231000	26214.330000
6506.160000	26127.980000
6508.088000	26044.020000
6510.017000	25985.970000
6511.945000	26092.890000
6513.874000	25924.380000
6515.802000	25920.220000
6517.731000	25840.130000
6519.659000	25748.660000
6521.588000	25792.300000
6523.516000	25800.800000
6525.445000	25537.130000
6527.373000	25511.700000
6529.302000	25523.620000
6531.230000	25572.240000
6533.159000	25473.530000
6535.087000	25332.110000
6537.016000	25386.920000
6538.944000	25406.500000
6540.873000	25431.920000
6542.801000	25257.250000
6544.729000	25325.320000
6546.658000	25303.180000
6548.586000	25159.670000
6550.515000	25109.880000
6552.443000	25186.090000
6554.372000	25009.770000
6556.300000	24966.030000
6558.229000	24829.710000
6560.157000	24872.410000
6562.085000	24921.100000
6564.014000	24873.140000
6565.942000	24789.020000
